# r, density
#   0.42442000000000002        1.6666700000000001        1.4249734000000001     
#          914
   0.0000000000000000        1.4281200250341688     
   1.0952902519167577E-003   1.4281143125578766     
   2.1905805038335154E-003   1.4280971752432505     
   3.2858707557502733E-003   1.4280686134787330     
   4.3811610076670308E-003   1.4280286279040970     
   5.4764512595837887E-003   1.4279772194149893     
   6.5717415115005466E-003   1.4279143891628978     
   7.6670317634173046E-003   1.4278401385551072     
   8.7623220153340616E-003   1.4277544692546456     
   9.8576122672508204E-003   1.4276573831802204     
   1.0952902519167577E-002   1.4275488825061475     
   1.2048192771084335E-002   1.4274289696622642     
   1.3143483023001093E-002   1.4272976473338406     
   1.4238773274917852E-002   1.4271549184614767     
   1.5334063526834609E-002   1.4270007862409888     
   1.6429353778751366E-002   1.4268352541232887     
   1.7524644030668123E-002   1.4266583258142524     
   1.8619934282584884E-002   1.4264700052745800     
   1.9715224534501641E-002   1.4262702967196423     
   2.0810514786418398E-002   1.4260592046193235     
   2.1905805038335155E-002   1.4258367336978475     
   2.3001095290251915E-002   1.4256028889336021     
   2.4096385542168669E-002   1.4253576755589470     
   2.5191675794085430E-002   1.4251010990600144     
   2.6286966046002187E-002   1.4248331651765025     
   2.7382256297918947E-002   1.4245538799014557     
   2.8477546549835704E-002   1.4242632494810366     
   2.9572836801752461E-002   1.4239612804142892     
   3.0668127053669218E-002   1.4236479794528907     
   3.1763417305585975E-002   1.4233233536008965     
   3.2858707557502732E-002   1.4229874101144731     
   3.3953997809419489E-002   1.4226401565016211     
   3.5049288061336246E-002   1.4222816005218928     
   3.6144578313253010E-002   1.4219117501860958     
   3.7239868565169768E-002   1.4215306137559873     
   3.8335158817086525E-002   1.4211381997439636     
   3.9430449069003282E-002   1.4207345169127343     
   4.0525739320920039E-002   1.4203195742749917     
   4.1621029572836796E-002   1.4198933810930665     
   4.2716319824753553E-002   1.4194559468785792     
   4.3811610076670310E-002   1.4190072813920764     
   4.4906900328587074E-002   1.4185473946426632     
   4.6002190580503831E-002   1.4180762968876230     
   4.7097480832420588E-002   1.4175939986320281     
   4.8192771084337338E-002   1.4171005106283416     
   4.9288061336254095E-002   1.4165958438760102     
   5.0383351588170859E-002   1.4160800096210493     
   5.1478641840087616E-002   1.4155530193556149     
   5.2573932092004373E-002   1.4150148848175699     
   5.3669222343921130E-002   1.4144656179900394     
   5.4764512595837894E-002   1.4139052311009583     
   5.5859802847754651E-002   1.4133337366226071     
   5.6955093099671408E-002   1.4127511472711423     
   5.8050383351588158E-002   1.4121574760061149     
   5.9145673603504922E-002   1.4115527360299813     
   6.0240963855421679E-002   1.4109369407876036     
   6.1336254107338437E-002   1.4103101039657426     
   6.2431544359255194E-002   1.4096722394925421     
   6.3526834611171951E-002   1.4090233615370020     
   6.4622124863088715E-002   1.4083634845084445     
   6.5717415115005465E-002   1.4076926230559712     
   6.6812705366922229E-002   1.4070107920679100     
   6.7907995618838979E-002   1.4063180066712548     
   6.9003285870755743E-002   1.4056142822310960     
   7.0098576122672493E-002   1.4048996343500417     
   7.1193866374589257E-002   1.4041740788676311     
   7.2289156626506021E-002   1.4034376318597372     
   7.3384446878422771E-002   1.4026903096379639     
   7.4479737130339535E-002   1.4019321287490327     
   7.5575027382256299E-002   1.4011631059741596     
   7.6670317634173049E-002   1.4003832583284275     
   7.7765607886089813E-002   1.3995926030601442     
   7.8860898138006563E-002   1.3987911576501981     
   7.9956188389923313E-002   1.3979789398114009     
   8.1051478641840077E-002   1.3971559674878240     
   8.2146768893756827E-002   1.3963222588541262     
   8.3242059145673591E-002   1.3954778323148731     
   8.4337349397590342E-002   1.3946227065038483     
   8.5432639649507106E-002   1.3937569002833550     
   8.6527929901423870E-002   1.3928804327435116     
   8.7623220153340620E-002   1.3919933232015376     
   8.8718510405257384E-002   1.3910955912010321     
   8.9813800657174148E-002   1.3901872565112448     
   9.0909090909090898E-002   1.3892683391263352     
   9.2004381161007662E-002   1.3883388592646300     
   9.3099671412924412E-002   1.3873988373678672     
   9.4194961664841176E-002   1.3864482941004357     
   9.5290251916757940E-002   1.3854872503486033     
   9.6385542168674676E-002   1.3845157272197426     
   9.7480832420591440E-002   1.3835337460415420     
   9.8576122672508190E-002   1.3825413283612145     
   9.9671412924424954E-002   1.3815384959446975     
  0.10076670317634172        1.3805252707758426     
  0.10186199342825847        1.3795016750556015     
  0.10295728368017523        1.3784677312012001     
  0.10405257393209200        1.3774234618453083     
  0.10514786418400875        1.3763688898352024     
  0.10624315443592551        1.3753040382319179     
  0.10733844468784226        1.3742289303093949     
  0.10843373493975902        1.3731435895536190     
  0.10952902519167579        1.3720480396617523     
  0.11062431544359254        1.3709423045412581     
  0.11171960569550930        1.3698264083090186     
  0.11281489594742607        1.3687003752904443     
  0.11391018619934282        1.3675642300185771     
  0.11500547645125957        1.3664179972331876     
  0.11610076670317632        1.3652617018798627     
  0.11719605695509308        1.3640953691090882     
  0.11829134720700984        1.3629190242753244     
  0.11938663745892659        1.3617326929360740     
  0.12048192771084336        1.3605364008509426     
  0.12157721796276011        1.3593301739806951     
  0.12267250821467687        1.3581140384863031     
  0.12376779846659364        1.3568880207279854     
  0.12486308871851039        1.3556521472642447     
  0.12595837897042714        1.3544064448508926     
  0.12705366922234390        1.3531509404400754     
  0.12814895947426067        1.3518856611792862     
  0.12924424972617743        1.3506106344103750     
  0.13033953997809419        1.3493258876685505     
  0.13143483023001093        1.3480314486813783     
  0.13253012048192769        1.3467273453677671     
  0.13362541073384446        1.3454136058369575     
  0.13472070098576119        1.3440902583874959     
  0.13581599123767796        1.3427573315062078     
  0.13691128148959472        1.3414148538671626     
  0.13800657174151149        1.3400628543306345     
  0.13910186199342825        1.3387013619420549     
  0.14019715224534499        1.3373304059309614     
  0.14129244249726175        1.3359500157099389     
  0.14238773274917851        1.3345602208735576     
  0.14348302300109528        1.3331610511973027     
  0.14457831325301204        1.3317525366364980     
  0.14567360350492878        1.3303347073252290     
  0.14676889375684554        1.3289075935752548     
  0.14786418400876231        1.3274712258749166     
  0.14895947426067907        1.3260256348880417     
  0.15005476451259583        1.3245708514528407     
  0.15115005476451260        1.3231069065808010     
  0.15224534501642933        1.3216338314555733     
  0.15334063526834610        1.3201516574318544     
  0.15443592552026286        1.3186604160342643     
  0.15553121577217963        1.3171601389562193     
  0.15662650602409639        1.3156508580587969     
  0.15772179627601313        1.3141326053695999     
  0.15881708652792986        1.3126054130816138     
  0.15991237677984663        1.3110693135520579     
  0.16100766703176339        1.3095243393012352     
  0.16210295728368015        1.3079705230113747     
  0.16319824753559689        1.3064078975254689     
  0.16429353778751365        1.3048364958461094     
  0.16538882803943042        1.3032563511343163     
  0.16648411829134718        1.3016674967083623     
  0.16757940854326395        1.3000699660425947     
  0.16867469879518068        1.2984637927662508     
  0.16976998904709745        1.2968490106622703     
  0.17086527929901421        1.2952256536661040     
  0.17196056955093098        1.2935937558645170     
  0.17305585980284774        1.2919533514943884     
  0.17415115005476448        1.2903044749415078     
  0.17524644030668124        1.2886471607393664     
  0.17634173055859800        1.2869814435679459     
  0.17743702081051477        1.2853073582525016     
  0.17853231106243153        1.2836249397623447     
  0.17962760131434830        1.2819342232096163     
  0.18072289156626503        1.2802352438480631     
  0.18181818181818180        1.2785280370718053     
  0.18291347207009856        1.2768126384141041     
  0.18400876232201532        1.2750890835461230     
  0.18510405257393209        1.2733574082756880     
  0.18619934282584882        1.2716176485460424     
  0.18729463307776559        1.2698698404346009     
  0.18838992332968235        1.2681140201516989     
  0.18948521358159912        1.2663502240393385     
  0.19058050383351588        1.2645784885699314     
  0.19167579408543262        1.2627988503450398     
  0.19277108433734935        1.2610113460941146     
  0.19386637458926612        1.2592160126732279     
  0.19496166484118288        1.2574128870638077     
  0.19605695509309964        1.2556020063713644     
  0.19715224534501638        1.2537834078242189     
  0.19824753559693314        1.2519571287722242     
  0.19934282584884991        1.2501232066854893     
  0.20043811610076667        1.2482816791530955     
  0.20153340635268344        1.2464325838818149     
  0.20262869660460017        1.2445759586948226     
  0.20372398685651694        1.2427118415304095     
  0.20481927710843370        1.2408402704406909     
  0.20591456736035046        1.2389612835903143     
  0.20700985761226723        1.2370749192551651     
  0.20810514786418399        1.2351812158210682     
  0.20920043811610073        1.2332802117824906     
  0.21029572836801749        1.2313719457412406     
  0.21139101861993426        1.2294564564051642     
  0.21248630887185102        1.2275337825868420     
  0.21358159912376778        1.2256039632022819     
  0.21467688937568452        1.2236670372696128     
  0.21577217962760128        1.2217230439077740     
  0.21686746987951805        1.2197720223352049     
  0.21796276013143481        1.2178140118685339     
  0.21905805038335158        1.2158490519212624     
  0.22015334063526831        1.2138771820024514     
  0.22124863088718508        1.2118984417154051     
  0.22234392113910184        1.2099128707563536     
  0.22343921139101861        1.2079205089131333     
  0.22453450164293537        1.2059213960638684     
  0.22562979189485213        1.2039155721756489     
  0.22672508214676887        1.2019030773032109     
  0.22782037239868563        1.1998839515876116     
  0.22891566265060237        1.1978582352549083     
  0.23001095290251913        1.1958259686148327     
  0.23110624315443587        1.1937871920594669     
  0.23220153340635263        1.1917419460619174     
  0.23329682365826940        1.1896902711749899     
  0.23439211391018616        1.1876322080298618     
  0.23548740416210293        1.1855677973347556     
  0.23658269441401969        1.1834970798736120     
  0.23767798466593643        1.1814200965047619     
  0.23877327491785319        1.1793368881595980     
  0.23986856516976995        1.1772474958412478     
  0.24096385542168672        1.1751519606232441     
  0.24205914567360348        1.1730503236481971     
  0.24315443592552022        1.1709426261264666     
  0.24424972617743698        1.1688289093348330     
  0.24534501642935375        1.1667092146151692     
  0.24644030668127051        1.1645835833731131     
  0.24753559693318727        1.1624520570767389     
  0.24863088718510401        1.1603146772552306     
  0.24972617743702077        1.1581714854975547     
  0.25082146768893754        1.1560225234511325     
  0.25191675794085427        1.1538678328205152     
  0.25301204819277107        1.1517074553660573     
  0.25410733844468780        1.1495414329025917     
  0.25520262869660459        1.1473698072981056     
  0.25629791894852133        1.1451926204724163     
  0.25739320920043807        1.1430099143958488     
  0.25848849945235486        1.1408217310879125     
  0.25958378970427159        1.1386281126159823     
  0.26067907995618839        1.1364291010939749     
  0.26177437020810512        1.1342247386810338     
  0.26286966046002186        1.1320150675802076     
  0.26396495071193860        1.1298001300371343     
  0.26506024096385539        1.1275799683387251     
  0.26615553121577212        1.1253546248118509     
  0.26725082146768891        1.1231241418220277     
  0.26834611171960565        1.1208885617721054     
  0.26944140197152239        1.1186479271009568     
  0.27053669222343918        1.1164022802821691     
  0.27163198247535592        1.1141516638227356     
  0.27272727272727271        1.1118961202617514     
  0.27382256297918944        1.1096356921691077     
  0.27491785323110618        1.1073704221441889     
  0.27601314348302297        1.1051003528145737     
  0.27710843373493971        1.1028255268347340     
  0.27820372398685650        1.1005459868847396     
  0.27929901423877324        1.0982617756689614     
  0.28039430449068997        1.0959729359147810     
  0.28148959474260676        1.0936795103712955     
  0.28258488499452350        1.0913815418080317     
  0.28368017524644029        1.0890790730136579     
  0.28477546549835703        1.0867721467947005     
  0.28587075575027376        1.0844608059742586     
  0.28696604600219056        1.0821450933907275     
  0.28806133625410729        1.0798250518965182     
  0.28915662650602408        1.0775007243567842     
  0.29025191675794082        1.0751721536481462     
  0.29134720700985756        1.0728393826574247     
  0.29244249726177435        1.0705024542803689     
  0.29353778751369108        1.0681614114203952     
  0.29463307776560788        1.0658162969873217     
  0.29572836801752461        1.0634671538961094     
  0.29682365826944140        1.0611140250656061     
  0.29791894852135814        1.0587569534172918     
  0.29901423877327488        1.0563959818740269     
  0.30010952902519167        1.0540311533588047     
  0.30120481927710840        1.0516625107935051     
  0.30230010952902520        1.0492900970976538     
  0.30339539978094193        1.0469139551871816     
  0.30449069003285867        1.0445341279731888     
  0.30558598028477546        1.0421506583607134     
  0.30668127053669220        1.0397635892474997     
  0.30777656078860899        1.0373729635227731     
  0.30887185104052572        1.0349788240660165     
  0.30996714129244246        1.0325812137457508     
  0.31106243154435925        1.0301801754183193     
  0.31215772179627599        1.0277757519266733     
  0.31325301204819278        1.0253679860991645     
  0.31434830230010952        1.0229569207483380     
  0.31544359255202625        1.0205425986697316     
  0.31653888280394299        1.0181250626406759     
  0.31763417305585973        1.0157043554190999     
  0.31872946330777652        1.0132805197423405     
  0.31982475355969325        1.0108535983259550     
  0.32092004381160999        1.0084236338625383     
  0.32201533406352678        1.0059906690205416     
  0.32311062431544352        1.0035547464430983     
  0.32420591456736031        1.0011159087468531     
  0.32530120481927705       0.99867419852079164     
  0.32639649507119378       0.99622965832507970     
  0.32749178532311057       0.99378233068990207     
  0.32858707557502731       0.99133225811430781     
  0.32968236582694410       0.98887948306505868     
  0.33077765607886084       0.98642404797548255     
  0.33187294633077757       0.98396599524433026     
  0.33296823658269437       0.98150536723463799     
  0.33406352683461110       0.97904220627259242     
  0.33515881708652789       0.97657655464640081     
  0.33625410733844463       0.97410845460516615     
  0.33734939759036137       0.97163794835776685     
  0.33844468784227816       0.96916507807173979     
  0.33953997809419489       0.96668988587216764     
  0.34063526834611169       0.96421241384057366     
  0.34173055859802842       0.96173270401381705     
  0.34282584884994516       0.95925079838299676     
  0.34392113910186195       0.95676673889235619     
  0.34501642935377869       0.95428056743819689     
  0.34611171960569548       0.95179232586779228     
  0.34720700985761221       0.94930205597831074     
  0.34830230010952895       0.94680979951574029     
  0.34939759036144574       0.94431559817381949     
  0.35049288061336248       0.94181949359297290     
  0.35158817086527927       0.93932152735925123     
  0.35268346111719601       0.93682174100327797     
  0.35377875136911280       0.93432017599919848     
  0.35487404162102953       0.93181687376363653     
  0.35596933187294627       0.92931187565465390     
  0.35706462212486306       0.92680522297071632     
  0.35815991237677980       0.92429695694966496     
  0.35925520262869659       0.92178711876769148     
  0.36035049288061333       0.91927574953831925     
  0.36144578313253006       0.91676289031139024     
  0.36254107338444685       0.91424858207205661     
  0.36363636363636359       0.91173286573977608     
  0.36473165388828038       0.90921578216731647     
  0.36582694414019712       0.90669737213976187     
  0.36692223439211386       0.90417767637352531     
  0.36801752464403065       0.90165673551536818     
  0.36911281489594738       0.89913459014142327     
  0.37020810514786417       0.89661128075622343     
  0.37130339539978091       0.89408684779173764     
  0.37239868565169765       0.89156133160641071     
  0.37349397590361444       0.88903477248420781     
  0.37458926615553118       0.88650721063366777     
  0.37568455640744797       0.88397868618695863     
  0.37677984665936470       0.88144923919894047     
  0.37787513691128144       0.87891890964623376     
  0.37897042716319823       0.87638773742629361     
  0.38006571741511497       0.87385576235648754     
  0.38116100766703176       0.87132302417318408     
  0.38225629791894850       0.86878956253083939     
  0.38335158817086523       0.86625541700109754     
  0.38444687842278202       0.86372062707189190     
  0.38554216867469870       0.86118523214655307     
  0.38663745892661550       0.85864927154292314     
  0.38773274917853223       0.85611278449247663     
  0.38882803943044897       0.85357581013944517     
  0.38992332968236576       0.85103838753995042     
  0.39101861993428250       0.84850055566114113     
  0.39211391018619929       0.84596235338033665     
  0.39320920043811602       0.84342381948417755     
  0.39430449069003276       0.84088499266777950     
  0.39539978094194955       0.83834591153389670     
  0.39649507119386629       0.83580661459208827     
  0.39759036144578308       0.83326714025789261     
  0.39868565169769982       0.83072752685200657     
  0.39978094194961655       0.82818781259947138     
  0.40087623220153334       0.82564803562886468     
  0.40197152245345008       0.82310823397149824     
  0.40306681270536687       0.82056844556062170     
  0.40416210295728361       0.81802870823063401     
  0.40525739320920035       0.81548905971629781     
  0.40635268346111714       0.81294953765196432     
  0.40744797371303387       0.81041017957079931     
  0.40854326396495066       0.80787102290402113     
  0.40963855421686740       0.80533210498013863     
